0.000000	-0.060000
1.000000	-0.065000
2.000000	-0.060000
3.000000	-0.075000
4.000000	-0.065000
5.000000	-0.070000
6.000000	-0.070000
7.000000	-0.090000
8.000000	-0.080000
9.000000	-0.095000
10.000000	-0.080000
11.000000	-0.095000
12.000000	-0.080000
13.000000	-0.095000
14.000000	-0.085000
15.000000	-0.090000
16.000000	-0.090000
17.000000	-0.100000
18.000000	-0.085000
19.000000	-0.105000
20.000000	-0.090000
21.000000	-0.045000
22.000000	0.005000
23.000000	0.015000
24.000000	0.045000
25.000000	0.155000
26.000000	0.140000
27.000000	0.045000
28.000000	0.005000
29.000000	-0.040000
30.000000	-0.085000
31.000000	-0.200000
32.000000	-0.195000
33.000000	-0.200000
34.000000	-0.200000
35.000000	-0.240000
36.000000	-0.130000
37.000000	0.340000
38.000000	1.155000
39.000000	1.470000
40.000000	-0.155000
41.000000	-0.825000
42.000000	-0.590000
43.000000	-0.350000
44.000000	-0.155000
45.000000	-0.170000
46.000000	-0.140000
47.000000	-0.155000
48.000000	-0.115000
49.000000	-0.125000
50.000000	-0.090000
51.000000	-0.095000
52.000000	-0.065000
53.000000	-0.055000
54.000000	-0.015000
55.000000	-0.005000
56.000000	0.035000
57.000000	0.045000
58.000000	0.090000
59.000000	0.110000
60.000000	0.150000
61.000000	0.180000
62.000000	0.205000
63.000000	0.225000
64.000000	0.230000
65.000000	0.220000
66.000000	0.235000
67.000000	0.230000
68.000000	0.200000
69.000000	0.170000
70.000000	0.120000
71.000000	0.075000
72.000000	0.040000
73.000000	0.020000
74.000000	0.005000
75.000000	-0.005000
76.000000	-0.005000
77.000000	-0.010000
78.000000	-0.015000
79.000000	-0.010000
80.000000	0.000000
81.000000	-0.005000
82.000000	-0.020000
83.000000	-0.020000
84.000000	-0.015000
85.000000	-0.025000
86.000000	-0.035000
87.000000	-0.045000
88.000000	-0.045000
89.000000	-0.060000
90.000000	-0.065000
91.000000	-0.070000
92.000000	-0.055000
93.000000	-0.060000
94.000000	-0.080000
95.000000	-0.075000
96.000000	-0.090000
97.000000	-0.065000
98.000000	-0.075000
99.000000	-0.080000
100.000000	-0.080000
101.000000	-0.085000
102.000000	-0.090000
103.000000	-0.075000
104.000000	-0.085000
105.000000	-0.095000
106.000000	-0.105000
107.000000	-0.090000
108.000000	-0.095000
109.000000	-0.070000
110.000000	-0.045000
111.000000	0.005000
112.000000	0.030000
113.000000	0.070000
114.000000	0.195000
115.000000	0.145000
116.000000	0.050000
117.000000	-0.015000
118.000000	-0.025000
119.000000	-0.115000
120.000000	-0.180000
121.000000	-0.190000
122.000000	-0.185000
123.000000	-0.185000
124.000000	-0.215000
125.000000	0.010000
126.000000	0.575000
127.000000	1.185000
128.000000	0.960000
129.000000	-0.160000
130.000000	-0.740000
131.000000	-0.640000
132.000000	-0.350000
133.000000	-0.175000
134.000000	-0.145000
135.000000	-0.150000
136.000000	-0.145000
137.000000	-0.105000
138.000000	-0.120000
139.000000	-0.090000
140.000000	-0.085000
141.000000	-0.070000
142.000000	-0.040000
143.000000	-0.020000
144.000000	0.005000
145.000000	0.020000
146.000000	0.045000
147.000000	0.080000
148.000000	0.115000
149.000000	0.140000
150.000000	0.165000
151.000000	0.210000
152.000000	0.190000
153.000000	0.220000
154.000000	0.210000
155.000000	0.215000
156.000000	0.215000
157.000000	0.160000
158.000000	0.135000
159.000000	0.100000
160.000000	0.050000
161.000000	0.035000
162.000000	-0.005000
163.000000	0.005000
164.000000	-0.005000
165.000000	-0.015000
166.000000	-0.020000
167.000000	-0.010000
168.000000	0.000000
169.000000	-0.020000
170.000000	-0.005000
171.000000	-0.040000
172.000000	-0.035000
173.000000	-0.050000
174.000000	-0.040000
175.000000	-0.055000
176.000000	-0.075000
177.000000	-0.050000
178.000000	-0.075000
179.000000	-0.090000
180.000000	-0.080000
181.000000	-0.090000
182.000000	-0.080000
183.000000	-0.075000
184.000000	-0.085000
185.000000	-0.085000
186.000000	-0.095000
187.000000	-0.095000
188.000000	-0.105000
189.000000	-0.080000
190.000000	-0.115000
191.000000	-0.100000
192.000000	-0.095000
193.000000	-0.100000
194.000000	-0.075000
195.000000	-0.005000
196.000000	0.010000
197.000000	0.055000
198.000000	0.185000
199.000000	0.145000
200.000000	0.075000
201.000000	-0.005000
202.000000	-0.025000
203.000000	-0.110000
204.000000	-0.175000
205.000000	-0.180000
206.000000	-0.220000
207.000000	-0.175000
208.000000	-0.240000
209.000000	-0.030000
210.000000	0.530000
211.000000	1.210000
212.000000	1.220000
213.000000	-0.105000
214.000000	-0.795000
215.000000	-0.690000
216.000000	-0.375000
217.000000	-0.165000
218.000000	-0.155000
219.000000	-0.135000
220.000000	-0.150000
221.000000	-0.120000
222.000000	-0.120000
223.000000	-0.090000
224.000000	-0.095000
225.000000	-0.050000
226.000000	-0.050000
227.000000	-0.010000
228.000000	-0.005000
229.000000	0.030000
230.000000	0.080000
231.000000	0.075000
232.000000	0.145000
233.000000	0.155000
234.000000	0.200000
235.000000	0.200000
236.000000	0.240000
237.000000	0.235000
238.000000	0.245000
239.000000	0.245000
240.000000	0.215000
241.000000	0.180000
242.000000	0.150000
243.000000	0.090000
244.000000	0.035000
245.000000	0.025000
246.000000	0.000000
247.000000	-0.015000
248.000000	-0.030000
249.000000	0.000000
250.000000	-0.020000
251.000000	-0.005000
252.000000	-0.025000
253.000000	-0.030000
254.000000	-0.015000
255.000000	-0.010000
256.000000	-0.035000
257.000000	-0.040000
258.000000	-0.050000
259.000000	-0.045000
260.000000	-0.040000
261.000000	-0.075000
262.000000	-0.065000
263.000000	-0.095000
264.000000	-0.085000
265.000000	-0.085000
266.000000	-0.090000
267.000000	-0.100000
268.000000	-0.100000
269.000000	-0.080000
270.000000	-0.105000
271.000000	-0.105000
272.000000	-0.100000
273.000000	-0.105000
274.000000	-0.095000
275.000000	-0.100000
276.000000	-0.090000
277.000000	-0.035000
278.000000	0.010000
279.000000	0.035000
280.000000	0.070000
281.000000	0.190000
282.000000	0.125000
283.000000	0.045000
284.000000	-0.035000
285.000000	-0.060000
286.000000	-0.155000
287.000000	-0.210000
288.000000	-0.225000
289.000000	-0.200000
290.000000	-0.215000
291.000000	-0.265000
292.000000	0.070000
293.000000	0.865000
294.000000	1.495000
295.000000	0.625000
296.000000	-0.440000
297.000000	-0.815000
298.000000	-0.600000
299.000000	-0.310000
300.000000	-0.175000
301.000000	-0.180000
302.000000	-0.165000
303.000000	-0.135000
304.000000	-0.135000
305.000000	-0.115000
306.000000	-0.105000
307.000000	-0.085000
308.000000	-0.060000
309.000000	-0.030000
310.000000	-0.020000
311.000000	0.015000
312.000000	0.050000
313.000000	0.070000
314.000000	0.105000
315.000000	0.165000
316.000000	0.200000
317.000000	0.205000
318.000000	0.235000
319.000000	0.235000
320.000000	0.265000
321.000000	0.260000
322.000000	0.235000
323.000000	0.215000
324.000000	0.170000
325.000000	0.125000
326.000000	0.090000
327.000000	0.025000
328.000000	-0.015000
329.000000	-0.030000
330.000000	-0.035000
331.000000	-0.040000
332.000000	-0.040000
333.000000	-0.035000
334.000000	-0.040000
335.000000	-0.020000
336.000000	-0.040000
337.000000	-0.040000
338.000000	-0.030000
339.000000	-0.045000
340.000000	-0.065000
341.000000	-0.060000
342.000000	-0.060000
343.000000	-0.090000
344.000000	-0.080000
345.000000	-0.095000
346.000000	-0.085000
347.000000	-0.105000
348.000000	-0.090000
349.000000	-0.100000
350.000000	-0.105000
351.000000	-0.115000
352.000000	-0.100000
353.000000	-0.115000
354.000000	-0.110000
355.000000	-0.135000
356.000000	-0.095000
357.000000	-0.125000
358.000000	-0.105000
359.000000	-0.085000
360.000000	-0.015000
361.000000	0.020000
362.000000	0.030000
363.000000	0.135000
364.000000	0.160000
365.000000	0.105000
366.000000	0.030000
367.000000	-0.050000
368.000000	-0.050000
369.000000	-0.170000
370.000000	-0.205000
371.000000	-0.215000
372.000000	-0.175000
373.000000	-0.210000
374.000000	-0.215000
375.000000	0.175000
376.000000	1.090000
377.000000	1.700000
378.000000	0.335000
379.000000	-0.615000
380.000000	-0.705000
381.000000	-0.460000
382.000000	-0.175000
383.000000	-0.165000
384.000000	-0.145000
385.000000	-0.155000
386.000000	-0.115000
387.000000	-0.120000
388.000000	-0.105000
389.000000	-0.105000
390.000000	-0.085000
391.000000	-0.060000
392.000000	-0.015000
393.000000	-0.005000
394.000000	0.020000
395.000000	0.050000
396.000000	0.080000
397.000000	0.105000
398.000000	0.180000
399.000000	0.205000
400.000000	0.240000
401.000000	0.235000
402.000000	0.270000
403.000000	0.270000
404.000000	0.280000
405.000000	0.260000
406.000000	0.230000
407.000000	0.175000
408.000000	0.135000
409.000000	0.090000
410.000000	0.045000
411.000000	0.000000
412.000000	-0.005000
413.000000	-0.025000
414.000000	-0.025000
415.000000	-0.025000
416.000000	-0.020000
417.000000	0.000000
418.000000	-0.005000
419.000000	-0.005000
420.000000	-0.005000
421.000000	-0.005000
422.000000	-0.010000
423.000000	-0.025000
424.000000	-0.020000
425.000000	-0.040000
426.000000	-0.040000
427.000000	-0.040000
428.000000	-0.050000
429.000000	-0.060000
430.000000	-0.050000
431.000000	-0.065000
432.000000	-0.060000
433.000000	-0.070000
434.000000	-0.060000
435.000000	-0.090000
436.000000	-0.080000
437.000000	-0.095000
438.000000	-0.085000
439.000000	-0.100000
440.000000	-0.090000
441.000000	-0.095000
442.000000	-0.085000
443.000000	-0.100000
444.000000	-0.075000
445.000000	-0.095000
446.000000	-0.080000
447.000000	-0.075000
448.000000	0.000000
449.000000	0.030000
450.000000	0.035000
451.000000	0.135000
452.000000	0.145000
453.000000	0.070000
454.000000	0.015000
455.000000	-0.045000
456.000000	-0.055000
457.000000	-0.185000
458.000000	-0.190000
459.000000	-0.220000
460.000000	-0.180000
461.000000	-0.210000
462.000000	-0.185000
463.000000	0.220000
464.000000	1.150000
465.000000	1.720000
466.000000	0.155000
467.000000	-0.700000
468.000000	-0.660000
469.000000	-0.405000
470.000000	-0.150000
471.000000	-0.160000
472.000000	-0.135000
473.000000	-0.145000
474.000000	-0.120000
475.000000	-0.125000
476.000000	-0.090000
477.000000	-0.090000
478.000000	-0.055000
479.000000	-0.040000
480.000000	-0.015000
481.000000	0.000000
482.000000	0.030000
483.000000	0.050000
484.000000	0.095000
485.000000	0.110000
486.000000	0.165000
487.000000	0.190000
488.000000	0.230000
489.000000	0.245000
490.000000	0.255000
491.000000	0.255000
492.000000	0.265000
493.000000	0.255000
494.000000	0.230000
495.000000	0.185000
496.000000	0.145000
497.000000	0.100000
498.000000	0.060000
499.000000	0.025000
500.000000	0.025000
501.000000	0.010000
502.000000	0.010000
503.000000	0.010000
504.000000	0.015000
505.000000	0.010000
506.000000	0.025000
507.000000	0.020000
508.000000	0.020000
509.000000	0.020000
510.000000	0.015000
511.000000	0.000000
512.000000	0.000000
513.000000	-0.010000
514.000000	-0.015000
515.000000	-0.020000
516.000000	-0.030000
517.000000	-0.035000
518.000000	-0.035000
519.000000	-0.045000
520.000000	-0.040000
521.000000	-0.045000
522.000000	-0.045000
523.000000	-0.055000
524.000000	-0.045000
525.000000	-0.055000
526.000000	-0.045000
527.000000	-0.060000
528.000000	-0.050000
529.000000	-0.060000
530.000000	-0.055000
531.000000	-0.080000
532.000000	-0.065000
533.000000	-0.090000
534.000000	-0.075000
535.000000	-0.090000
536.000000	-0.070000
537.000000	-0.075000
538.000000	-0.065000
539.000000	-0.080000
540.000000	-0.065000
541.000000	-0.030000
542.000000	0.025000
543.000000	0.040000
544.000000	0.065000
545.000000	0.180000
546.000000	0.145000
547.000000	0.055000
548.000000	0.015000
549.000000	-0.035000
550.000000	-0.060000
551.000000	-0.175000
552.000000	-0.170000
553.000000	-0.195000
554.000000	-0.175000
555.000000	-0.220000
556.000000	-0.115000
557.000000	0.355000
558.000000	1.240000
559.000000	1.595000
560.000000	-0.115000
561.000000	-0.815000
562.000000	-0.565000
563.000000	-0.300000
564.000000	-0.130000
565.000000	-0.160000
566.000000	-0.130000
567.000000	-0.135000
568.000000	-0.110000
569.000000	-0.120000
570.000000	-0.090000
571.000000	-0.085000
572.000000	-0.055000
573.000000	-0.040000
574.000000	-0.005000
575.000000	0.000000
576.000000	0.040000
577.000000	0.050000
578.000000	0.095000
579.000000	0.125000
580.000000	0.170000
581.000000	0.190000
582.000000	0.220000
583.000000	0.230000
584.000000	0.245000
585.000000	0.250000
586.000000	0.260000
587.000000	0.240000
588.000000	0.220000
589.000000	0.175000
590.000000	0.135000
591.000000	0.085000
592.000000	0.055000
593.000000	0.020000
594.000000	0.015000
595.000000	0.010000
596.000000	0.010000
597.000000	0.000000
598.000000	0.000000
599.000000	0.000000
600.000000	0.010000
601.000000	0.005000
602.000000	0.020000
603.000000	0.010000
604.000000	0.000000
605.000000	-0.010000
606.000000	-0.015000
607.000000	-0.020000
608.000000	-0.020000
609.000000	-0.025000
610.000000	-0.035000
611.000000	-0.030000
612.000000	-0.045000
613.000000	-0.050000
614.000000	-0.050000
615.000000	-0.055000
616.000000	-0.065000
617.000000	-0.065000
618.000000	-0.060000
619.000000	-0.065000
620.000000	-0.070000
621.000000	-0.060000
622.000000	-0.060000
623.000000	-0.055000
624.000000	-0.060000
625.000000	-0.065000
626.000000	-0.080000
627.000000	-0.065000
628.000000	-0.080000
629.000000	-0.065000
630.000000	-0.075000
631.000000	-0.070000
632.000000	-0.085000
633.000000	-0.070000
634.000000	-0.085000
635.000000	-0.075000
636.000000	-0.085000
637.000000	-0.060000
638.000000	-0.045000
639.000000	0.020000
640.000000	0.040000
641.000000	0.055000
642.000000	0.180000
643.000000	0.155000
644.000000	0.060000
645.000000	0.020000
646.000000	-0.025000
647.000000	-0.055000
648.000000	-0.180000
649.000000	-0.160000
650.000000	-0.170000
651.000000	-0.165000
652.000000	-0.195000
653.000000	-0.100000
654.000000	0.350000
655.000000	1.115000
656.000000	1.495000
657.000000	-0.040000
658.000000	-0.730000
659.000000	-0.620000
660.000000	-0.365000
661.000000	-0.130000
662.000000	-0.150000
663.000000	-0.135000
664.000000	-0.150000
665.000000	-0.120000
666.000000	-0.130000
667.000000	-0.105000
668.000000	-0.090000
669.000000	-0.055000
670.000000	-0.060000
671.000000	-0.035000
672.000000	-0.015000
673.000000	0.020000
674.000000	0.045000
675.000000	0.065000
676.000000	0.095000
677.000000	0.145000
678.000000	0.180000
679.000000	0.215000
680.000000	0.200000
681.000000	0.225000
682.000000	0.235000
683.000000	0.245000
684.000000	0.235000
685.000000	0.225000
686.000000	0.175000
687.000000	0.130000
688.000000	0.090000
689.000000	0.050000
690.000000	0.035000
691.000000	0.015000
692.000000	0.005000
693.000000	0.000000
694.000000	-0.005000
695.000000	0.000000
696.000000	0.000000
697.000000	0.000000
698.000000	0.000000
699.000000	-0.005000
700.000000	-0.005000
701.000000	-0.020000
702.000000	-0.020000
703.000000	-0.040000
704.000000	-0.050000
705.000000	-0.060000
706.000000	-0.060000
707.000000	-0.060000
708.000000	-0.070000
709.000000	-0.065000
710.000000	-0.075000
711.000000	-0.070000
712.000000	-0.065000
713.000000	-0.075000
714.000000	-0.075000
715.000000	-0.075000
716.000000	-0.090000
717.000000	-0.075000
718.000000	-0.085000
719.000000	-0.080000
720.000000	-0.090000
721.000000	-0.075000
722.000000	-0.090000
723.000000	-0.080000
724.000000	-0.090000
725.000000	-0.080000
726.000000	-0.100000
727.000000	-0.085000
728.000000	-0.100000
729.000000	-0.075000
730.000000	-0.085000
731.000000	-0.090000
732.000000	-0.075000
733.000000	-0.015000
734.000000	0.025000
735.000000	0.055000
736.000000	0.155000
737.000000	0.160000
738.000000	0.095000
739.000000	0.015000
740.000000	-0.035000
741.000000	-0.050000
742.000000	-0.175000
743.000000	-0.170000
744.000000	-0.190000
745.000000	-0.175000
746.000000	-0.200000
747.000000	-0.105000
748.000000	0.335000
749.000000	1.095000
750.000000	1.470000
751.000000	0.065000
752.000000	-0.660000
753.000000	-0.690000
754.000000	-0.440000
755.000000	-0.185000
756.000000	-0.160000
757.000000	-0.135000
758.000000	-0.135000
759.000000	-0.115000
760.000000	-0.115000
761.000000	-0.110000
762.000000	-0.095000
763.000000	-0.055000
764.000000	-0.050000
765.000000	-0.015000
766.000000	-0.005000
767.000000	0.045000
768.000000	0.050000
769.000000	0.095000
770.000000	0.120000
771.000000	0.165000
772.000000	0.185000
773.000000	0.210000
774.000000	0.225000
775.000000	0.245000
776.000000	0.240000
777.000000	0.240000
778.000000	0.235000
779.000000	0.210000
780.000000	0.165000
781.000000	0.125000
782.000000	0.070000
783.000000	0.045000
784.000000	0.010000
785.000000	0.020000
786.000000	0.005000
787.000000	0.000000
788.000000	0.000000
789.000000	0.000000
790.000000	0.000000
791.000000	0.000000
792.000000	-0.005000
793.000000	-0.010000
794.000000	-0.005000
795.000000	-0.025000
796.000000	-0.005000
797.000000	-0.040000
798.000000	-0.040000
799.000000	-0.045000
800.000000	-0.045000
801.000000	-0.040000
802.000000	-0.055000
803.000000	-0.065000
804.000000	-0.050000
805.000000	-0.065000
806.000000	-0.065000
807.000000	-0.065000
808.000000	-0.065000
809.000000	-0.070000
810.000000	-0.065000
811.000000	-0.070000
812.000000	-0.065000
813.000000	-0.070000
814.000000	-0.070000
815.000000	-0.085000
816.000000	-0.060000
817.000000	-0.090000
818.000000	-0.065000
819.000000	-0.085000
820.000000	-0.080000
821.000000	-0.085000
822.000000	-0.050000
823.000000	-0.090000
824.000000	-0.075000
825.000000	-0.055000
826.000000	0.005000
827.000000	0.055000
828.000000	0.060000
829.000000	0.160000
830.000000	0.155000
831.000000	0.080000
832.000000	0.015000
833.000000	-0.020000
834.000000	-0.045000
835.000000	-0.170000
836.000000	-0.170000
837.000000	-0.175000
838.000000	-0.160000
839.000000	-0.200000
840.000000	-0.105000
841.000000	0.360000
842.000000	1.160000
843.000000	1.550000
844.000000	0.070000
845.000000	-0.690000
846.000000	-0.660000
847.000000	-0.410000
848.000000	-0.155000
849.000000	-0.155000
850.000000	-0.135000
851.000000	-0.135000
852.000000	-0.105000
853.000000	-0.110000
854.000000	-0.085000
855.000000	-0.090000
856.000000	-0.065000
857.000000	-0.045000
858.000000	-0.005000
859.000000	0.000000
860.000000	0.040000
861.000000	0.065000
862.000000	0.100000
863.000000	0.120000
864.000000	0.175000
865.000000	0.190000
866.000000	0.230000
867.000000	0.255000
868.000000	0.270000
869.000000	0.265000
870.000000	0.275000
871.000000	0.245000
872.000000	0.215000
873.000000	0.175000
874.000000	0.140000
875.000000	0.095000
876.000000	0.040000
877.000000	0.025000
878.000000	0.015000
879.000000	0.000000
880.000000	0.000000
881.000000	0.000000
882.000000	0.000000
883.000000	0.000000
884.000000	0.000000
885.000000	0.000000
886.000000	0.000000
887.000000	-0.005000
888.000000	-0.010000
889.000000	-0.010000
890.000000	-0.015000
891.000000	-0.030000
892.000000	-0.035000
893.000000	-0.045000
894.000000	-0.045000
895.000000	-0.050000
896.000000	-0.045000
897.000000	-0.065000
898.000000	-0.070000
899.000000	-0.075000
900.000000	-0.070000
901.000000	-0.090000
902.000000	-0.085000
903.000000	-0.090000
904.000000	-0.070000
905.000000	-0.085000
906.000000	-0.085000
907.000000	-0.095000
908.000000	-0.085000
909.000000	-0.090000
910.000000	-0.085000
911.000000	-0.090000
912.000000	-0.090000
913.000000	-0.100000
914.000000	-0.090000
915.000000	-0.105000
916.000000	-0.090000
917.000000	-0.100000
918.000000	-0.085000
919.000000	-0.055000
920.000000	0.000000
921.000000	0.035000
922.000000	0.050000
923.000000	0.170000
924.000000	0.135000
925.000000	0.060000
926.000000	0.010000
927.000000	-0.035000
928.000000	-0.075000
929.000000	-0.190000
930.000000	-0.185000
931.000000	-0.205000
932.000000	-0.180000
933.000000	-0.225000
934.000000	-0.110000
935.000000	0.380000
936.000000	1.215000
937.000000	1.545000
938.000000	-0.025000
939.000000	-0.765000
940.000000	-0.620000
941.000000	-0.370000
942.000000	-0.155000
943.000000	-0.170000
944.000000	-0.145000
945.000000	-0.160000
946.000000	-0.130000
947.000000	-0.145000
948.000000	-0.125000
949.000000	-0.120000
950.000000	-0.080000
951.000000	-0.065000
952.000000	-0.035000
953.000000	-0.020000
954.000000	0.010000
955.000000	0.035000
956.000000	0.080000
957.000000	0.105000
958.000000	0.155000
959.000000	0.180000
960.000000	0.220000
961.000000	0.225000
962.000000	0.240000
963.000000	0.235000
964.000000	0.245000
965.000000	0.225000
966.000000	0.200000
967.000000	0.155000
968.000000	0.115000
969.000000	0.075000
970.000000	0.050000
971.000000	0.020000
972.000000	0.000000
973.000000	-0.010000
974.000000	-0.015000
975.000000	-0.010000
976.000000	-0.010000
977.000000	-0.005000
978.000000	0.000000
979.000000	0.000000
980.000000	0.000000
981.000000	0.000000
982.000000	0.000000
983.000000	-0.005000
984.000000	-0.010000
985.000000	-0.020000
986.000000	-0.025000
987.000000	-0.035000
988.000000	-0.045000
989.000000	-0.055000
990.000000	-0.055000
991.000000	-0.060000
992.000000	-0.060000
993.000000	-0.060000
994.000000	-0.055000
995.000000	-0.055000
996.000000	-0.055000
997.000000	-0.065000
998.000000	-0.060000
999.000000	-0.055000
1000.000000	-0.045000
1001.000000	-0.055000
1002.000000	-0.055000
1003.000000	-0.055000
1004.000000	-0.055000
1005.000000	-0.075000
1006.000000	-0.065000
1007.000000	-0.080000
1008.000000	-0.065000
1009.000000	-0.080000
1010.000000	-0.075000
1011.000000	-0.090000
1012.000000	-0.085000
1013.000000	-0.105000
1014.000000	-0.090000
1015.000000	-0.110000
1016.000000	-0.095000
1017.000000	-0.110000
1018.000000	-0.100000
1019.000000	-0.085000
1020.000000	-0.025000
1021.000000	0.010000
1022.000000	0.010000
1023.000000	0.100000
1024.000000	0.135000
1025.000000	0.075000
1026.000000	0.000000
1027.000000	-0.050000
1028.000000	-0.045000
1029.000000	-0.175000
1030.000000	-0.195000
1031.000000	-0.205000
1032.000000	-0.190000
1033.000000	-0.205000
1034.000000	-0.220000
1035.000000	0.145000
1036.000000	1.025000
1037.000000	1.605000
1038.000000	0.240000
1039.000000	-0.625000
1040.000000	-0.665000
1041.000000	-0.425000
1042.000000	-0.180000
1043.000000	-0.185000
1044.000000	-0.175000
1045.000000	-0.175000
1046.000000	-0.150000
1047.000000	-0.150000
1048.000000	-0.120000
1049.000000	-0.120000
1050.000000	-0.090000
1051.000000	-0.080000
1052.000000	-0.045000
1053.000000	-0.025000
1054.000000	0.000000
1055.000000	0.020000
1056.000000	0.060000
1057.000000	0.080000
1058.000000	0.130000
1059.000000	0.160000
1060.000000	0.185000
1061.000000	0.195000
1062.000000	0.210000
1063.000000	0.210000
1064.000000	0.220000
1065.000000	0.215000
1066.000000	0.195000
1067.000000	0.170000
1068.000000	0.135000
1069.000000	0.085000
1070.000000	0.045000
1071.000000	0.015000
1072.000000	-0.005000
1073.000000	-0.015000
1074.000000	-0.015000
1075.000000	-0.015000
1076.000000	-0.005000
1077.000000	-0.005000
1078.000000	0.000000
1079.000000	0.000000
1080.000000	0.015000
1081.000000	0.010000
1082.000000	0.000000
1083.000000	0.000000
1084.000000	0.000000
1085.000000	-0.010000
1086.000000	-0.015000
1087.000000	-0.025000
1088.000000	-0.030000
1089.000000	-0.025000
1090.000000	-0.040000
1091.000000	-0.045000
1092.000000	-0.040000
1093.000000	-0.050000
1094.000000	-0.055000
1095.000000	-0.045000
1096.000000	-0.030000
1097.000000	-0.045000
1098.000000	-0.050000
1099.000000	-0.040000
1100.000000	-0.045000
1101.000000	-0.055000
1102.000000	-0.055000
1103.000000	-0.065000
1104.000000	-0.065000
1105.000000	-0.065000
1106.000000	-0.070000
1107.000000	-0.080000
1108.000000	-0.065000
1109.000000	-0.075000
1110.000000	-0.075000
1111.000000	-0.080000
1112.000000	-0.070000
1113.000000	-0.080000
1114.000000	-0.080000
1115.000000	-0.085000
1116.000000	-0.065000
1117.000000	-0.080000
1118.000000	-0.080000
1119.000000	-0.090000
1120.000000	-0.090000
1121.000000	-0.075000
1122.000000	-0.025000
1123.000000	0.035000
1124.000000	0.045000
1125.000000	0.115000
1126.000000	0.165000
1127.000000	0.125000
1128.000000	0.040000
1129.000000	-0.015000
1130.000000	-0.005000
1131.000000	-0.135000
1132.000000	-0.170000
1133.000000	-0.185000
1134.000000	-0.165000
1135.000000	-0.180000
1136.000000	-0.200000
1137.000000	0.135000
1138.000000	0.890000
1139.000000	1.440000
1140.000000	0.425000
1141.000000	-0.470000
1142.000000	-0.670000
1143.000000	-0.455000
1144.000000	-0.200000
1145.000000	-0.155000
1146.000000	-0.130000
1147.000000	-0.140000
1148.000000	-0.125000
1149.000000	-0.130000
1150.000000	-0.105000
1151.000000	-0.110000
1152.000000	-0.080000
1153.000000	-0.060000
1154.000000	-0.045000
1155.000000	-0.030000
1156.000000	0.005000
1157.000000	0.015000
1158.000000	0.045000
1159.000000	0.085000
1160.000000	0.110000
1161.000000	0.140000
1162.000000	0.180000
1163.000000	0.205000
1164.000000	0.215000
1165.000000	0.215000
1166.000000	0.235000
1167.000000	0.225000
1168.000000	0.225000
1169.000000	0.190000
1170.000000	0.160000
1171.000000	0.125000
1172.000000	0.070000
1173.000000	0.035000
1174.000000	0.015000
1175.000000	0.010000
1176.000000	0.005000
1177.000000	0.005000
1178.000000	0.000000
1179.000000	0.005000
1180.000000	0.010000
1181.000000	0.005000
1182.000000	0.005000
1183.000000	0.010000
1184.000000	0.000000
1185.000000	0.005000
1186.000000	0.000000
1187.000000	-0.010000
1188.000000	-0.015000
1189.000000	-0.020000
1190.000000	-0.015000
1191.000000	-0.025000
1192.000000	-0.030000
1193.000000	-0.030000
1194.000000	-0.040000
1195.000000	-0.035000
1196.000000	-0.035000
1197.000000	-0.040000
1198.000000	-0.045000
1199.000000	-0.045000
1200.000000	-0.050000
1201.000000	-0.045000
1202.000000	-0.055000
1203.000000	-0.055000
1204.000000	-0.060000
1205.000000	-0.060000
1206.000000	-0.065000
1207.000000	-0.055000
1208.000000	-0.065000
1209.000000	-0.065000
1210.000000	-0.065000
1211.000000	-0.060000
1212.000000	-0.060000
1213.000000	-0.060000
1214.000000	-0.070000
1215.000000	-0.060000
1216.000000	-0.080000
1217.000000	-0.075000
1218.000000	-0.075000
1219.000000	-0.075000
1220.000000	-0.080000
1221.000000	-0.070000
1222.000000	-0.065000
1223.000000	-0.010000
1224.000000	0.030000
1225.000000	0.050000
1226.000000	0.100000
1227.000000	0.200000
1228.000000	0.145000
1229.000000	0.055000
1230.000000	-0.005000
1231.000000	0.000000
1232.000000	-0.120000
1233.000000	-0.160000
1234.000000	-0.170000
1235.000000	-0.160000
1236.000000	-0.175000
1237.000000	-0.210000
1238.000000	0.125000
1239.000000	0.835000
1240.000000	1.350000
1241.000000	0.530000
1242.000000	-0.335000
1243.000000	-0.675000
1244.000000	-0.540000
1245.000000	-0.250000
1246.000000	-0.145000
1247.000000	-0.145000
1248.000000	-0.135000
1249.000000	-0.115000
1250.000000	-0.115000
1251.000000	-0.090000
1252.000000	-0.090000
1253.000000	-0.075000
1254.000000	-0.060000
1255.000000	-0.025000
1256.000000	0.000000
1257.000000	0.030000
1258.000000	0.040000
1259.000000	0.080000
1260.000000	0.095000
1261.000000	0.130000
1262.000000	0.160000
1263.000000	0.205000
1264.000000	0.210000
1265.000000	0.220000
1266.000000	0.225000
1267.000000	0.250000
1268.000000	0.250000
1269.000000	0.230000
1270.000000	0.195000
1271.000000	0.170000
1272.000000	0.115000
1273.000000	0.075000
1274.000000	0.050000
1275.000000	0.035000
1276.000000	0.005000
1277.000000	0.015000
1278.000000	0.030000
1279.000000	0.025000
1280.000000	0.020000
1281.000000	0.020000
1282.000000	0.030000
1283.000000	0.020000
1284.000000	0.035000
1285.000000	0.015000
1286.000000	0.005000
1287.000000	0.005000
1288.000000	-0.005000
1289.000000	-0.005000
1290.000000	-0.020000
1291.000000	-0.010000
1292.000000	-0.015000
1293.000000	-0.035000
1294.000000	-0.030000
1295.000000	-0.025000
1296.000000	-0.025000
1297.000000	-0.025000
1298.000000	-0.040000
1299.000000	-0.040000
1300.000000	-0.035000
1301.000000	-0.030000
1302.000000	-0.030000
1303.000000	-0.040000
1304.000000	-0.030000
1305.000000	-0.040000
1306.000000	-0.030000
1307.000000	-0.035000
1308.000000	-0.035000
1309.000000	-0.045000
1310.000000	-0.045000
1311.000000	-0.065000
1312.000000	-0.055000
1313.000000	-0.060000
1314.000000	-0.060000
1315.000000	-0.075000
1316.000000	-0.050000
1317.000000	-0.060000
1318.000000	-0.060000
1319.000000	-0.065000
1320.000000	-0.070000
1321.000000	-0.040000
1322.000000	0.010000
1323.000000	0.055000
1324.000000	0.075000
1325.000000	0.180000
1326.000000	0.185000
1327.000000	0.100000
1328.000000	0.025000
1329.000000	-0.025000
1330.000000	-0.055000
1331.000000	-0.175000
1332.000000	-0.165000
1333.000000	-0.180000
1334.000000	-0.170000
1335.000000	-0.220000
1336.000000	-0.100000
1337.000000	0.365000
1338.000000	1.095000
1339.000000	1.450000
1340.000000	0.065000
1341.000000	-0.665000
1342.000000	-0.670000
1343.000000	-0.435000
1344.000000	-0.185000
1345.000000	-0.170000
1346.000000	-0.150000
1347.000000	-0.155000
1348.000000	-0.130000
1349.000000	-0.120000
1350.000000	-0.095000
1351.000000	-0.105000
1352.000000	-0.070000
1353.000000	-0.055000
1354.000000	-0.025000
1355.000000	-0.005000
1356.000000	0.035000
1357.000000	0.040000
1358.000000	0.085000
1359.000000	0.120000
1360.000000	0.165000
1361.000000	0.190000
1362.000000	0.220000
1363.000000	0.235000
1364.000000	0.250000
1365.000000	0.255000
1366.000000	0.260000
1367.000000	0.245000
1368.000000	0.215000
1369.000000	0.180000
1370.000000	0.140000
1371.000000	0.095000
1372.000000	0.060000
1373.000000	0.030000
1374.000000	0.015000
1375.000000	0.010000
1376.000000	0.010000
1377.000000	0.010000
1378.000000	0.000000
1379.000000	0.005000
1380.000000	0.010000
1381.000000	0.015000
1382.000000	0.000000
1383.000000	0.005000
1384.000000	0.000000
1385.000000	0.000000
1386.000000	-0.020000
1387.000000	-0.025000
1388.000000	-0.015000
1389.000000	-0.015000
1390.000000	-0.015000
1391.000000	-0.030000
1392.000000	-0.040000
1393.000000	-0.035000
1394.000000	-0.045000
1395.000000	-0.040000
1396.000000	-0.040000
1397.000000	-0.045000
1398.000000	-0.050000
1399.000000	-0.040000
1400.000000	-0.050000
1401.000000	-0.050000
1402.000000	-0.050000
1403.000000	-0.055000
1404.000000	-0.060000
1405.000000	-0.050000
1406.000000	-0.065000
1407.000000	-0.055000
1408.000000	-0.075000
1409.000000	-0.055000
1410.000000	-0.075000
1411.000000	-0.055000
1412.000000	-0.075000
1413.000000	-0.065000
1414.000000	-0.070000
1415.000000	-0.075000
1416.000000	-0.100000
1417.000000	-0.070000
1418.000000	-0.045000
1419.000000	0.010000
1420.000000	0.050000
1421.000000	0.065000
1422.000000	0.170000
1423.000000	0.155000
1424.000000	0.085000
1425.000000	0.035000
1426.000000	-0.020000
1427.000000	-0.030000
1428.000000	-0.160000
1429.000000	-0.165000
1430.000000	-0.190000
1431.000000	-0.165000
1432.000000	-0.205000
1433.000000	-0.120000
1434.000000	0.310000
1435.000000	1.150000
1436.000000	1.590000
1437.000000	0.070000
1438.000000	-0.685000
1439.000000	-0.615000
1440.000000	-0.385000
1441.000000	-0.160000
1442.000000	-0.175000
1443.000000	-0.140000
1444.000000	-0.150000
1445.000000	-0.135000
1446.000000	-0.140000
1447.000000	-0.120000
1448.000000	-0.115000
1449.000000	-0.085000
1450.000000	-0.080000
1451.000000	-0.045000
1452.000000	-0.030000
1453.000000	0.005000
1454.000000	0.020000
1455.000000	0.055000
1456.000000	0.085000
1457.000000	0.145000
1458.000000	0.175000
1459.000000	0.205000
1460.000000	0.215000
1461.000000	0.235000
1462.000000	0.240000
1463.000000	0.245000
1464.000000	0.235000
1465.000000	0.215000
1466.000000	0.180000
1467.000000	0.145000
1468.000000	0.095000
1469.000000	0.055000
1470.000000	0.015000
1471.000000	0.010000
1472.000000	-0.015000
1473.000000	-0.010000
1474.000000	-0.010000
1475.000000	-0.010000
1476.000000	-0.015000
1477.000000	-0.005000
1478.000000	0.000000
1479.000000	0.000000
1480.000000	-0.005000
1481.000000	-0.015000
1482.000000	-0.015000
1483.000000	-0.020000
1484.000000	-0.025000
1485.000000	-0.040000
1486.000000	-0.055000
1487.000000	-0.050000
1488.000000	-0.055000
1489.000000	-0.050000
1490.000000	-0.070000
1491.000000	-0.070000
1492.000000	-0.070000
1493.000000	-0.080000
1494.000000	-0.070000
1495.000000	-0.075000
1496.000000	-0.075000
1497.000000	-0.080000
1498.000000	-0.075000
1499.000000	-0.085000
1500.000000	-0.075000
1501.000000	-0.075000
1502.000000	-0.075000
1503.000000	-0.080000
1504.000000	-0.085000
1505.000000	-0.090000
1506.000000	-0.075000
1507.000000	-0.080000
1508.000000	-0.075000
1509.000000	-0.100000
1510.000000	-0.095000
1511.000000	-0.080000
1512.000000	-0.085000
1513.000000	-0.075000
1514.000000	-0.025000
1515.000000	0.030000
1516.000000	0.020000
1517.000000	0.085000
1518.000000	0.150000
1519.000000	0.105000
1520.000000	0.025000
1521.000000	-0.040000
1522.000000	-0.035000
1523.000000	-0.150000
1524.000000	-0.200000
1525.000000	-0.210000
1526.000000	-0.195000
1527.000000	-0.195000
1528.000000	-0.225000
1529.000000	0.095000
1530.000000	0.835000
1531.000000	1.390000
1532.000000	0.585000
1533.000000	-0.350000
1534.000000	-0.685000
1535.000000	-0.505000
1536.000000	-0.235000
1537.000000	-0.160000
1538.000000	-0.150000
1539.000000	-0.150000
1540.000000	-0.135000
1541.000000	-0.140000
1542.000000	-0.120000
1543.000000	-0.100000
1544.000000	-0.075000
1545.000000	-0.060000
1546.000000	-0.035000
1547.000000	-0.015000
1548.000000	0.010000
1549.000000	0.035000
1550.000000	0.070000
1551.000000	0.100000
1552.000000	0.140000
1553.000000	0.170000
1554.000000	0.210000
1555.000000	0.230000
1556.000000	0.250000
1557.000000	0.260000
1558.000000	0.260000
1559.000000	0.260000
1560.000000	0.235000
1561.000000	0.200000
1562.000000	0.155000
1563.000000	0.115000
1564.000000	0.070000
1565.000000	0.035000
1566.000000	0.010000
1567.000000	0.010000
1568.000000	0.000000
1569.000000	0.000000
1570.000000	-0.005000
1571.000000	0.000000
1572.000000	0.000000
1573.000000	0.000000
1574.000000	0.000000
1575.000000	0.000000
1576.000000	0.000000
1577.000000	0.000000
1578.000000	-0.010000
1579.000000	-0.010000
1580.000000	-0.015000
1581.000000	-0.025000
1582.000000	-0.030000
1583.000000	-0.040000
1584.000000	-0.045000
1585.000000	-0.055000
1586.000000	-0.055000
1587.000000	-0.060000
1588.000000	-0.060000
1589.000000	-0.065000
1590.000000	-0.065000
1591.000000	-0.065000
1592.000000	-0.060000
1593.000000	-0.065000
1594.000000	-0.065000
1595.000000	-0.080000
1596.000000	-0.075000
1597.000000	-0.080000
1598.000000	-0.070000
1599.000000	-0.085000
1600.000000	-0.070000
1601.000000	-0.085000
1602.000000	-0.070000
1603.000000	-0.085000
1604.000000	-0.070000
1605.000000	-0.090000
1606.000000	-0.080000
1607.000000	-0.090000
1608.000000	-0.075000
1609.000000	-0.095000
1610.000000	-0.080000
1611.000000	-0.055000
1612.000000	0.005000
1613.000000	0.040000
1614.000000	0.040000
1615.000000	0.150000
1616.000000	0.140000
1617.000000	0.065000
1618.000000	0.005000
1619.000000	-0.045000
1620.000000	-0.055000
1621.000000	-0.190000
1622.000000	-0.190000
1623.000000	-0.210000
1624.000000	-0.180000
1625.000000	-0.205000
1626.000000	-0.160000
1627.000000	0.255000
1628.000000	1.150000
1629.000000	1.640000
1630.000000	0.005000
1631.000000	-0.720000
1632.000000	-0.590000
1633.000000	-0.365000
1634.000000	-0.155000
1635.000000	-0.180000
1636.000000	-0.145000
1637.000000	-0.155000
1638.000000	-0.125000
1639.000000	-0.130000
1640.000000	-0.095000
1641.000000	-0.095000
1642.000000	-0.060000
1643.000000	-0.055000
1644.000000	-0.015000
1645.000000	-0.005000
1646.000000	0.025000
1647.000000	0.045000
1648.000000	0.085000
1649.000000	0.115000
1650.000000	0.165000
1651.000000	0.205000
1652.000000	0.245000
1653.000000	0.250000
1654.000000	0.260000
1655.000000	0.255000
1656.000000	0.250000
1657.000000	0.250000
1658.000000	0.230000
1659.000000	0.185000
1660.000000	0.145000
1661.000000	0.105000
1662.000000	0.060000
1663.000000	0.025000
1664.000000	0.005000
1665.000000	0.000000
1666.000000	-0.010000
1667.000000	0.000000
1668.000000	0.000000
1669.000000	0.000000
1670.000000	0.000000
1671.000000	0.000000
1672.000000	0.000000
1673.000000	0.005000
1674.000000	0.000000
1675.000000	-0.005000
1676.000000	-0.005000
1677.000000	-0.010000
1678.000000	-0.015000
1679.000000	-0.020000
1680.000000	-0.025000
1681.000000	-0.035000
1682.000000	-0.045000
1683.000000	-0.035000
1684.000000	-0.050000
1685.000000	-0.050000
1686.000000	-0.055000
1687.000000	-0.055000
1688.000000	-0.060000
1689.000000	-0.055000
1690.000000	-0.060000
1691.000000	-0.065000
1692.000000	-0.065000
1693.000000	-0.060000
1694.000000	-0.060000
1695.000000	-0.050000
1696.000000	-0.070000
1697.000000	-0.060000
1698.000000	-0.065000
1699.000000	-0.055000
1700.000000	-0.070000
1701.000000	-0.060000
1702.000000	-0.080000
1703.000000	-0.065000
1704.000000	-0.080000
1705.000000	-0.080000
1706.000000	-0.085000
1707.000000	-0.075000
1708.000000	-0.085000
1709.000000	-0.075000
1710.000000	-0.090000
1711.000000	-0.080000
1712.000000	-0.045000
1713.000000	0.000000
1714.000000	0.040000
1715.000000	0.070000
1716.000000	0.180000
1717.000000	0.145000
1718.000000	0.050000
1719.000000	0.000000
1720.000000	-0.035000
1721.000000	-0.085000
1722.000000	-0.185000
1723.000000	-0.185000
1724.000000	-0.190000
1725.000000	-0.170000
1726.000000	-0.225000
1727.000000	-0.025000
1728.000000	0.500000
1729.000000	1.130000
1730.000000	1.185000
1731.000000	-0.070000
1732.000000	-0.700000
1733.000000	-0.620000
1734.000000	-0.355000
1735.000000	-0.150000
1736.000000	-0.160000
1737.000000	-0.140000
1738.000000	-0.145000
1739.000000	-0.120000
1740.000000	-0.115000
1741.000000	-0.095000
1742.000000	-0.085000
1743.000000	-0.075000
1744.000000	-0.065000
1745.000000	-0.030000
1746.000000	-0.015000
1747.000000	0.010000
1748.000000	0.030000
1749.000000	0.080000
1750.000000	0.100000
1751.000000	0.140000
1752.000000	0.170000
1753.000000	0.215000
1754.000000	0.230000
1755.000000	0.245000
1756.000000	0.245000
1757.000000	0.260000
1758.000000	0.240000
1759.000000	0.225000
1760.000000	0.180000
1761.000000	0.160000
1762.000000	0.115000
1763.000000	0.065000
1764.000000	0.045000
1765.000000	0.045000
1766.000000	0.015000
1767.000000	0.000000
1768.000000	0.005000
1769.000000	0.005000
1770.000000	0.010000
1771.000000	0.000000
1772.000000	0.000000
1773.000000	-0.005000
1774.000000	-0.005000
1775.000000	-0.010000
1776.000000	-0.020000
1777.000000	-0.030000
1778.000000	-0.030000
1779.000000	-0.025000
1780.000000	-0.040000
1781.000000	-0.030000
1782.000000	-0.060000
1783.000000	-0.050000
1784.000000	-0.045000
1785.000000	-0.045000
1786.000000	-0.055000
1787.000000	-0.060000
1788.000000	-0.055000
1789.000000	-0.065000
1790.000000	-0.065000
1791.000000	-0.060000
1792.000000	-0.055000
1793.000000	-0.060000
1794.000000	-0.070000
1795.000000	-0.055000
1796.000000	-0.075000
1797.000000	-0.060000
1798.000000	-0.075000
1799.000000	-0.075000
1800.000000	-0.080000
1801.000000	-0.080000
1802.000000	-0.090000
1803.000000	-0.080000
1804.000000	-0.090000
1805.000000	-0.070000
1806.000000	-0.070000
1807.000000	-0.020000
1808.000000	0.025000
1809.000000	0.045000
1810.000000	0.100000
1811.000000	0.185000
1812.000000	0.130000
1813.000000	0.040000
1814.000000	-0.030000
1815.000000	-0.020000
1816.000000	-0.130000
1817.000000	-0.155000
1818.000000	-0.170000
1819.000000	-0.165000
1820.000000	-0.180000
1821.000000	-0.200000
1822.000000	0.145000
1823.000000	0.845000
1824.000000	1.350000
1825.000000	0.575000
1826.000000	-0.295000
1827.000000	-0.665000
1828.000000	-0.545000
1829.000000	-0.275000
1830.000000	-0.160000
1831.000000	-0.150000
1832.000000	-0.145000
1833.000000	-0.135000
1834.000000	-0.140000
1835.000000	-0.125000
1836.000000	-0.105000
1837.000000	-0.085000
1838.000000	-0.070000
1839.000000	-0.055000
1840.000000	-0.040000
1841.000000	0.000000
1842.000000	0.020000
1843.000000	0.065000
1844.000000	0.065000
1845.000000	0.105000
1846.000000	0.140000
1847.000000	0.190000
1848.000000	0.195000
1849.000000	0.225000
1850.000000	0.220000
1851.000000	0.220000
1852.000000	0.230000
1853.000000	0.215000
1854.000000	0.175000
1855.000000	0.135000
1856.000000	0.090000
1857.000000	0.050000
1858.000000	0.025000
1859.000000	0.010000
1860.000000	-0.005000
1861.000000	-0.015000
1862.000000	-0.010000
1863.000000	0.000000
1864.000000	0.000000
1865.000000	0.000000
1866.000000	0.000000
1867.000000	0.000000
1868.000000	0.000000
1869.000000	-0.005000
1870.000000	0.000000
1871.000000	-0.025000
1872.000000	-0.025000
1873.000000	-0.025000
1874.000000	-0.025000
1875.000000	-0.030000
1876.000000	-0.050000
1877.000000	-0.035000
1878.000000	-0.050000
1879.000000	-0.045000
1880.000000	-0.055000
1881.000000	-0.050000
1882.000000	-0.055000
1883.000000	-0.055000
1884.000000	-0.080000
1885.000000	-0.050000
1886.000000	-0.065000
1887.000000	-0.050000
1888.000000	-0.080000
1889.000000	-0.075000
1890.000000	-0.075000
1891.000000	-0.075000
1892.000000	-0.085000
1893.000000	-0.060000
1894.000000	-0.080000
1895.000000	-0.085000
1896.000000	-0.075000
1897.000000	-0.020000
1898.000000	0.020000
1899.000000	0.045000
1900.000000	0.125000
1901.000000	0.165000
1902.000000	0.115000
1903.000000	0.020000
1904.000000	-0.045000
1905.000000	-0.040000
1906.000000	-0.165000
1907.000000	-0.185000
1908.000000	-0.210000
1909.000000	-0.180000
1910.000000	-0.205000
1911.000000	-0.210000
1912.000000	0.160000
1913.000000	0.950000
1914.000000	1.475000
1915.000000	0.375000
1916.000000	-0.450000
1917.000000	-0.700000
1918.000000	-0.525000
1919.000000	-0.250000
1920.000000	-0.170000
1921.000000	-0.165000
1922.000000	-0.165000
1923.000000	-0.135000
1924.000000	-0.135000
1925.000000	-0.110000
1926.000000	-0.115000
1927.000000	-0.085000
1928.000000	-0.080000
1929.000000	-0.045000
1930.000000	-0.035000
1931.000000	0.010000
1932.000000	0.020000
1933.000000	0.040000
1934.000000	0.090000
1935.000000	0.130000
1936.000000	0.170000
1937.000000	0.205000
1938.000000	0.210000
1939.000000	0.250000
1940.000000	0.235000
1941.000000	0.250000
1942.000000	0.225000
1943.000000	0.225000
1944.000000	0.170000
1945.000000	0.125000
1946.000000	0.100000
1947.000000	0.035000
1948.000000	0.010000
1949.000000	-0.015000
1950.000000	-0.020000
1951.000000	-0.035000
1952.000000	-0.025000
1953.000000	-0.030000
1954.000000	-0.030000
1955.000000	-0.030000
1956.000000	-0.035000
1957.000000	-0.045000
1958.000000	-0.040000
1959.000000	-0.035000
1960.000000	-0.040000
1961.000000	-0.055000
1962.000000	-0.050000
1963.000000	-0.040000
1964.000000	-0.070000
1965.000000	-0.060000
1966.000000	-0.065000
1967.000000	-0.060000
1968.000000	-0.095000
1969.000000	-0.095000
1970.000000	-0.100000
1971.000000	-0.065000
1972.000000	-0.095000
1973.000000	-0.115000
1974.000000	-0.090000
1975.000000	-0.085000
1976.000000	-0.120000
1977.000000	-0.080000
1978.000000	-0.125000
1979.000000	-0.115000
1980.000000	-0.105000
1981.000000	-0.085000
1982.000000	-0.065000
1983.000000	0.010000
1984.000000	0.040000
1985.000000	0.060000
1986.000000	0.195000
1987.000000	0.155000
1988.000000	0.075000
1989.000000	0.000000
1990.000000	-0.035000
1991.000000	-0.090000
1992.000000	-0.185000
1993.000000	-0.180000
1994.000000	-0.190000
1995.000000	-0.170000
1996.000000	-0.235000
1997.000000	-0.080000
1998.000000	0.445000
1999.000000	1.180000
2000.000000	1.415000
2001.000000	0.040000
2002.000000	-0.710000
2003.000000	-0.675000
2004.000000	-0.410000
2005.000000	-0.165000
2006.000000	-0.175000
2007.000000	-0.140000
2008.000000	-0.130000
2009.000000	-0.110000
2010.000000	-0.120000
2011.000000	-0.100000
2012.000000	-0.085000
2013.000000	-0.055000
2014.000000	-0.045000
2015.000000	-0.015000
2016.000000	-0.005000
2017.000000	0.025000
2018.000000	0.055000
2019.000000	0.100000
2020.000000	0.130000
2021.000000	0.175000
2022.000000	0.185000
2023.000000	0.235000
2024.000000	0.250000
2025.000000	0.265000
2026.000000	0.265000
2027.000000	0.270000
2028.000000	0.255000
2029.000000	0.215000
2030.000000	0.170000
2031.000000	0.110000
2032.000000	0.060000
2033.000000	0.040000
2034.000000	0.000000
2035.000000	-0.010000
2036.000000	-0.025000
2037.000000	-0.020000
2038.000000	-0.030000
2039.000000	-0.040000
2040.000000	-0.040000
2041.000000	-0.030000
2042.000000	-0.020000
2043.000000	-0.030000
2044.000000	-0.035000
2045.000000	-0.035000
2046.000000	-0.040000
2047.000000	-0.055000
2048.000000	-0.045000
2049.000000	-0.065000
2050.000000	-0.065000
2051.000000	-0.075000
2052.000000	-0.070000
2053.000000	-0.080000
2054.000000	-0.080000
2055.000000	-0.090000
2056.000000	-0.080000
2057.000000	-0.090000
2058.000000	-0.095000
2059.000000	-0.100000
2060.000000	-0.095000
2061.000000	-0.100000
2062.000000	-0.100000
2063.000000	-0.110000
2064.000000	-0.105000
2065.000000	-0.110000
2066.000000	-0.105000
2067.000000	-0.090000
2068.000000	-0.025000
2069.000000	0.030000
2070.000000	0.015000
2071.000000	0.095000
2072.000000	0.130000
2073.000000	0.085000
2074.000000	0.005000
2075.000000	-0.050000
2076.000000	-0.060000
2077.000000	-0.175000
2078.000000	-0.210000
2079.000000	-0.210000
2080.000000	-0.205000
2081.000000	-0.210000
2082.000000	-0.245000
2083.000000	0.065000
2084.000000	0.890000
2085.000000	1.575000
2086.000000	0.785000
2087.000000	-0.380000
2088.000000	-0.715000
2089.000000	-0.475000
2090.000000	-0.225000
2091.000000	-0.180000
2092.000000	-0.175000
2093.000000	-0.165000
2094.000000	-0.155000
2095.000000	-0.145000
2096.000000	-0.125000
2097.000000	-0.115000
2098.000000	-0.090000
2099.000000	-0.075000
2100.000000	-0.045000
2101.000000	-0.020000
2102.000000	0.000000
2103.000000	0.035000
2104.000000	0.070000
2105.000000	0.110000
2106.000000	0.150000
2107.000000	0.190000
2108.000000	0.230000
2109.000000	0.260000
2110.000000	0.270000
2111.000000	0.275000
2112.000000	0.280000
2113.000000	0.270000
2114.000000	0.240000
2115.000000	0.195000
2116.000000	0.145000
2117.000000	0.095000
2118.000000	0.055000
2119.000000	0.025000
2120.000000	0.000000
2121.000000	-0.005000
2122.000000	-0.010000
2123.000000	-0.010000
2124.000000	-0.005000
2125.000000	-0.005000
2126.000000	-0.005000
2127.000000	0.000000
2128.000000	0.000000
2129.000000	0.000000
2130.000000	0.000000
2131.000000	-0.010000
2132.000000	-0.015000
2133.000000	-0.020000
2134.000000	-0.025000
2135.000000	-0.035000
2136.000000	-0.040000
2137.000000	-0.050000
2138.000000	-0.055000
2139.000000	-0.060000
2140.000000	-0.065000
2141.000000	-0.065000
2142.000000	-0.065000
2143.000000	-0.065000
2144.000000	-0.075000
2145.000000	-0.065000
2146.000000	-0.075000
2147.000000	-0.075000
2148.000000	-0.075000
2149.000000	-0.075000
2150.000000	-0.080000
2151.000000	-0.075000
2152.000000	-0.085000
2153.000000	-0.070000
2154.000000	-0.080000
2155.000000	-0.070000
2156.000000	-0.080000
2157.000000	-0.080000
2158.000000	-0.090000
2159.000000	-0.080000
2160.000000	-0.090000
2161.000000	-0.080000
2162.000000	-0.095000
2163.000000	-0.085000
2164.000000	-0.060000
2165.000000	-0.010000
2166.000000	0.035000
2167.000000	0.030000
2168.000000	0.125000
2169.000000	0.140000
2170.000000	0.090000
2171.000000	0.015000
2172.000000	-0.030000
2173.000000	-0.035000
2174.000000	-0.160000
2175.000000	-0.185000
2176.000000	-0.185000
2177.000000	-0.150000
2178.000000	-0.185000
2179.000000	-0.195000
2180.000000	0.150000
2181.000000	1.065000
2182.000000	1.715000
2183.000000	0.380000
2184.000000	-0.620000
2185.000000	-0.630000
2186.000000	-0.390000
2187.000000	-0.160000
2188.000000	-0.165000
2189.000000	-0.150000
2190.000000	-0.160000
2191.000000	-0.135000
2192.000000	-0.135000
2193.000000	-0.130000
2194.000000	-0.110000
2195.000000	-0.085000
2196.000000	-0.070000
2197.000000	-0.035000
2198.000000	-0.025000
2199.000000	0.000000
2200.000000	0.030000
2201.000000	0.085000
2202.000000	0.095000
2203.000000	0.150000
2204.000000	0.175000
2205.000000	0.225000
2206.000000	0.240000
2207.000000	0.255000
2208.000000	0.275000
2209.000000	0.275000
2210.000000	0.265000
2211.000000	0.260000
2212.000000	0.210000
2213.000000	0.175000
2214.000000	0.110000
2215.000000	0.070000
2216.000000	0.040000
2217.000000	0.025000
2218.000000	0.000000
2219.000000	-0.010000
2220.000000	-0.005000
2221.000000	-0.005000
2222.000000	-0.020000
2223.000000	-0.010000
2224.000000	-0.020000
2225.000000	-0.005000
2226.000000	0.000000
2227.000000	-0.030000
2228.000000	-0.020000
2229.000000	-0.025000
2230.000000	-0.015000
2231.000000	-0.040000
2232.000000	-0.035000
2233.000000	-0.045000
2234.000000	-0.055000
2235.000000	-0.045000
2236.000000	-0.060000
2237.000000	-0.060000
2238.000000	-0.055000
2239.000000	-0.070000
2240.000000	-0.060000
2241.000000	-0.070000
2242.000000	-0.060000
2243.000000	-0.085000
2244.000000	-0.080000
2245.000000	-0.070000
2246.000000	-0.065000
2247.000000	-0.080000
2248.000000	-0.085000
2249.000000	-0.080000
2250.000000	-0.105000
2251.000000	-0.090000
2252.000000	-0.080000
2253.000000	-0.085000
2254.000000	-0.100000
2255.000000	-0.090000
2256.000000	-0.100000
2257.000000	-0.080000
2258.000000	-0.020000
2259.000000	0.005000
2260.000000	0.030000
2261.000000	0.090000
2262.000000	0.170000
2263.000000	0.125000
2264.000000	0.040000
2265.000000	-0.035000
2266.000000	-0.025000
2267.000000	-0.155000
2268.000000	-0.195000
2269.000000	-0.200000
2270.000000	-0.185000
2271.000000	-0.195000
2272.000000	-0.205000
2273.000000	0.115000
2274.000000	0.780000
2275.000000	1.265000
2276.000000	0.595000
2277.000000	-0.285000
2278.000000	-0.720000
2279.000000	-0.615000
2280.000000	-0.330000
2281.000000	-0.180000
2282.000000	-0.165000
2283.000000	-0.150000
2284.000000	-0.140000
2285.000000	-0.140000
2286.000000	-0.125000
2287.000000	-0.115000
2288.000000	-0.085000
2289.000000	-0.055000
2290.000000	-0.035000
2291.000000	-0.025000
2292.000000	0.005000
2293.000000	0.010000
2294.000000	0.060000
2295.000000	0.080000
2296.000000	0.100000
2297.000000	0.145000
2298.000000	0.170000
2299.000000	0.210000
2300.000000	0.230000
2301.000000	0.230000
2302.000000	0.250000
2303.000000	0.235000
2304.000000	0.220000
2305.000000	0.195000
2306.000000	0.165000
2307.000000	0.125000
2308.000000	0.070000
2309.000000	0.040000
2310.000000	0.025000
2311.000000	0.005000
2312.000000	-0.005000
2313.000000	-0.010000
2314.000000	0.000000
2315.000000	0.005000
2316.000000	0.000000
2317.000000	0.000000
2318.000000	-0.005000
2319.000000	-0.010000
2320.000000	-0.010000
2321.000000	-0.030000
2322.000000	-0.030000
2323.000000	-0.020000
2324.000000	-0.020000
2325.000000	-0.050000
2326.000000	-0.050000
2327.000000	-0.065000
2328.000000	-0.055000
2329.000000	-0.065000
2330.000000	-0.065000
2331.000000	-0.070000
2332.000000	-0.070000
2333.000000	-0.080000
2334.000000	-0.085000
2335.000000	-0.085000
2336.000000	-0.080000
2337.000000	-0.075000
2338.000000	-0.065000
2339.000000	-0.090000
2340.000000	-0.105000
2341.000000	-0.070000
2342.000000	-0.105000
2343.000000	-0.075000
2344.000000	-0.095000
2345.000000	-0.070000
2346.000000	-0.095000
2347.000000	-0.085000
2348.000000	-0.090000
2349.000000	-0.070000
2350.000000	-0.070000
2351.000000	-0.005000
2352.000000	0.020000
2353.000000	0.045000
2354.000000	0.135000
2355.000000	0.200000
2356.000000	0.115000
2357.000000	0.030000
2358.000000	-0.030000
2359.000000	-0.035000
2360.000000	-0.170000
2361.000000	-0.175000
2362.000000	-0.175000
2363.000000	-0.170000
2364.000000	-0.205000
2365.000000	-0.165000
2366.000000	0.265000
2367.000000	1.075000
2368.000000	1.570000
2369.000000	0.210000
2370.000000	-0.570000
2371.000000	-0.710000
2372.000000	-0.510000
2373.000000	-0.240000
2374.000000	-0.170000
2375.000000	-0.155000
2376.000000	-0.145000
2377.000000	-0.135000
2378.000000	-0.125000
2379.000000	-0.105000
2380.000000	-0.110000
2381.000000	-0.055000
2382.000000	-0.075000
2383.000000	-0.015000
2384.000000	-0.030000
2385.000000	0.025000
2386.000000	0.030000
2387.000000	0.060000
2388.000000	0.100000
2389.000000	0.155000
2390.000000	0.170000
2391.000000	0.225000
2392.000000	0.240000
2393.000000	0.275000
2394.000000	0.255000
2395.000000	0.250000
2396.000000	0.250000
2397.000000	0.220000
2398.000000	0.185000
2399.000000	0.140000
2400.000000	0.080000
2401.000000	0.060000
2402.000000	0.010000
2403.000000	0.000000
2404.000000	-0.010000
2405.000000	-0.035000
2406.000000	-0.015000
2407.000000	-0.020000
2408.000000	-0.020000
2409.000000	-0.015000
2410.000000	-0.005000
2411.000000	0.000000
2412.000000	-0.030000
2413.000000	-0.015000
2414.000000	-0.030000
2415.000000	-0.040000
2416.000000	-0.035000
2417.000000	-0.050000
2418.000000	-0.055000
2419.000000	-0.060000
2420.000000	-0.075000
2421.000000	-0.080000
2422.000000	-0.090000
2423.000000	-0.070000
2424.000000	-0.075000
2425.000000	-0.080000
2426.000000	-0.095000
2427.000000	-0.085000
2428.000000	-0.100000
2429.000000	-0.090000
2430.000000	-0.100000
2431.000000	-0.100000
2432.000000	-0.120000
2433.000000	-0.135000
2434.000000	-0.100000
2435.000000	-0.015000
2436.000000	0.010000
2437.000000	0.035000
2438.000000	0.120000
2439.000000	0.170000
2440.000000	0.085000
2441.000000	-0.005000
2442.000000	-0.060000
2443.000000	-0.055000
2444.000000	-0.195000
2445.000000	-0.215000
2446.000000	-0.220000
2447.000000	-0.200000
2448.000000	-0.250000
2449.000000	-0.145000
2450.000000	0.310000
2451.000000	1.200000
2452.000000	1.645000
2453.000000	0.055000
2454.000000	-0.750000
2455.000000	-0.795000
2456.000000	-0.505000
2457.000000	-0.240000
2458.000000	-0.210000
2459.000000	-0.140000
2460.000000	-0.170000
2461.000000	-0.140000
2462.000000	-0.165000
2463.000000	-0.120000
2464.000000	-0.115000
2465.000000	-0.075000
2466.000000	-0.075000
2467.000000	-0.050000
2468.000000	0.000000
2469.000000	-0.020000
2470.000000	0.045000
2471.000000	0.065000
2472.000000	0.115000
2473.000000	0.165000
2474.000000	0.190000
2475.000000	0.245000
2476.000000	0.255000
2477.000000	0.250000
2478.000000	0.260000
2479.000000	0.285000
2480.000000	0.265000
2481.000000	0.185000
2482.000000	0.170000
2483.000000	0.095000
2484.000000	0.055000
2485.000000	0.030000
2486.000000	-0.050000
2487.000000	-0.025000
2488.000000	-0.060000
2489.000000	-0.045000
2490.000000	-0.060000
2491.000000	-0.070000
2492.000000	-0.065000
2493.000000	-0.050000
2494.000000	-0.050000
2495.000000	-0.055000
2496.000000	-0.040000
2497.000000	-0.045000
2498.000000	-0.050000
2499.000000	-0.050000
2500.000000	-0.070000
2501.000000	-0.095000
2502.000000	-0.075000
2503.000000	-0.080000
2504.000000	-0.095000
2505.000000	-0.085000
2506.000000	-0.100000
2507.000000	-0.095000
2508.000000	-0.125000
2509.000000	-0.100000
2510.000000	-0.100000
2511.000000	-0.090000
2512.000000	-0.055000
2513.000000	0.015000
2514.000000	0.020000
2515.000000	0.060000
2516.000000	0.160000
2517.000000	0.140000
2518.000000	0.035000
2519.000000	-0.025000
2520.000000	-0.035000
2521.000000	-0.125000
2522.000000	-0.215000
2523.000000	-0.210000
2524.000000	-0.190000
2525.000000	-0.205000
2526.000000	-0.265000
2527.000000	-0.005000
2528.000000	0.745000
2529.000000	1.480000
2530.000000	1.130000
2531.000000	-0.275000
2532.000000	-0.855000
2533.000000	-0.650000
2534.000000	-0.355000
2535.000000	-0.175000
2536.000000	-0.175000
2537.000000	-0.155000
2538.000000	-0.150000
2539.000000	-0.150000
2540.000000	-0.135000
2541.000000	-0.120000
2542.000000	-0.075000
2543.000000	-0.085000
2544.000000	-0.055000
2545.000000	-0.020000
2546.000000	0.000000
2547.000000	0.010000
2548.000000	0.065000
2549.000000	0.095000
2550.000000	0.120000
2551.000000	0.210000
2552.000000	0.230000
2553.000000	0.265000
2554.000000	0.285000
2555.000000	0.290000
2556.000000	0.300000
2557.000000	0.275000
2558.000000	0.240000
2559.000000	0.180000
2560.000000	0.140000
2561.000000	0.070000
2562.000000	0.005000
2563.000000	-0.010000
2564.000000	-0.030000
2565.000000	-0.065000
2566.000000	-0.070000
2567.000000	-0.070000
2568.000000	-0.075000
2569.000000	-0.080000
2570.000000	-0.060000
2571.000000	-0.060000
2572.000000	-0.060000
2573.000000	-0.055000
2574.000000	-0.055000
2575.000000	-0.055000
2576.000000	-0.060000
2577.000000	-0.070000
2578.000000	-0.080000
2579.000000	-0.080000
2580.000000	-0.080000
2581.000000	-0.110000
2582.000000	-0.100000
2583.000000	-0.110000
2584.000000	-0.095000
2585.000000	-0.110000
2586.000000	-0.125000
2587.000000	-0.135000
2588.000000	-0.085000
2589.000000	-0.060000
2590.000000	0.005000
2591.000000	0.015000
2592.000000	0.045000
2593.000000	0.145000
2594.000000	0.135000
2595.000000	0.030000
2596.000000	-0.030000
2597.000000	-0.065000
2598.000000	-0.120000
2599.000000	-0.225000
2600.000000	-0.220000
2601.000000	-0.225000
2602.000000	-0.215000
2603.000000	-0.255000
2604.000000	-0.050000
2605.000000	0.615000
2606.000000	1.465000
2607.000000	1.475000
2608.000000	-0.185000
2609.000000	-0.885000
2610.000000	-0.615000
2611.000000	-0.335000
2612.000000	-0.170000
2613.000000	-0.175000
2614.000000	-0.160000
2615.000000	-0.150000
2616.000000	-0.140000
2617.000000	-0.155000
2618.000000	-0.130000
2619.000000	-0.115000
2620.000000	-0.060000
2621.000000	-0.070000
2622.000000	-0.040000
2623.000000	-0.025000
2624.000000	0.020000
2625.000000	0.040000
2626.000000	0.090000
2627.000000	0.120000
2628.000000	0.180000
2629.000000	0.225000
2630.000000	0.255000
2631.000000	0.285000
2632.000000	0.300000
2633.000000	0.300000
2634.000000	0.290000
2635.000000	0.235000
2636.000000	0.200000
2637.000000	0.140000
2638.000000	0.090000
2639.000000	0.035000
2640.000000	0.005000
2641.000000	-0.025000
2642.000000	-0.040000
2643.000000	-0.050000
2644.000000	-0.040000
2645.000000	-0.045000
2646.000000	-0.045000
2647.000000	-0.040000
2648.000000	-0.040000
2649.000000	-0.045000
2650.000000	-0.045000
2651.000000	-0.050000
2652.000000	-0.040000
2653.000000	-0.065000
2654.000000	-0.055000
2655.000000	-0.065000
2656.000000	-0.070000
2657.000000	-0.080000
2658.000000	-0.080000
2659.000000	-0.095000
2660.000000	-0.075000
2661.000000	-0.090000
2662.000000	-0.105000
2663.000000	-0.115000
2664.000000	-0.105000
2665.000000	-0.125000
2666.000000	-0.100000
2667.000000	-0.115000
2668.000000	-0.105000
2669.000000	-0.070000
2670.000000	-0.005000
2671.000000	0.030000
2672.000000	0.035000
2673.000000	0.125000
2674.000000	0.145000
2675.000000	0.080000
2676.000000	0.025000
2677.000000	-0.050000
2678.000000	-0.060000
2679.000000	-0.190000
2680.000000	-0.200000
2681.000000	-0.210000
2682.000000	-0.205000
2683.000000	-0.225000
2684.000000	-0.235000
2685.000000	0.155000
2686.000000	1.090000
2687.000000	1.750000
2688.000000	0.420000
2689.000000	-0.575000
2690.000000	-0.670000
2691.000000	-0.420000
2692.000000	-0.175000
2693.000000	-0.175000
2694.000000	-0.155000
2695.000000	-0.165000
2696.000000	-0.145000
2697.000000	-0.155000
2698.000000	-0.120000
2699.000000	-0.125000
2700.000000	-0.085000
2701.000000	-0.080000
2702.000000	-0.045000
2703.000000	-0.040000
2704.000000	0.000000
2705.000000	0.025000
2706.000000	0.065000
2707.000000	0.090000
2708.000000	0.150000
2709.000000	0.180000
2710.000000	0.225000
2711.000000	0.240000
2712.000000	0.265000
2713.000000	0.275000
2714.000000	0.280000
2715.000000	0.260000
2716.000000	0.235000
2717.000000	0.180000
2718.000000	0.125000
2719.000000	0.070000
2720.000000	0.030000
2721.000000	0.000000
2722.000000	-0.020000
2723.000000	-0.030000
2724.000000	-0.030000
2725.000000	-0.035000
2726.000000	-0.030000
2727.000000	-0.030000
2728.000000	-0.035000
2729.000000	-0.025000
2730.000000	-0.035000
2731.000000	-0.035000
2732.000000	-0.030000
2733.000000	-0.040000
2734.000000	-0.055000
2735.000000	-0.060000
2736.000000	-0.080000
2737.000000	-0.075000
2738.000000	-0.080000
2739.000000	-0.080000
2740.000000	-0.090000
2741.000000	-0.090000
2742.000000	-0.105000
2743.000000	-0.100000
2744.000000	-0.105000
2745.000000	-0.100000
2746.000000	-0.105000
2747.000000	-0.100000
2748.000000	-0.105000
2749.000000	-0.100000
2750.000000	-0.075000
2751.000000	-0.005000
2752.000000	0.040000
2753.000000	0.005000
2754.000000	0.115000
2755.000000	0.135000
2756.000000	0.100000
2757.000000	0.005000
2758.000000	-0.060000
2759.000000	-0.070000
2760.000000	-0.180000
2761.000000	-0.215000
2762.000000	-0.215000
2763.000000	-0.200000
2764.000000	-0.205000
2765.000000	-0.245000
2766.000000	0.060000
2767.000000	0.890000
2768.000000	1.580000
2769.000000	0.700000
2770.000000	-0.470000
2771.000000	-0.685000
2772.000000	-0.410000
2773.000000	-0.190000
2774.000000	-0.185000
2775.000000	-0.175000
2776.000000	-0.170000
2777.000000	-0.150000
2778.000000	-0.140000
2779.000000	-0.130000
2780.000000	-0.120000
2781.000000	-0.095000
2782.000000	-0.070000
2783.000000	-0.045000
2784.000000	-0.025000
2785.000000	-0.005000
2786.000000	0.025000
2787.000000	0.050000
2788.000000	0.085000
2789.000000	0.135000
2790.000000	0.180000
2791.000000	0.210000
2792.000000	0.240000
2793.000000	0.270000
2794.000000	0.260000
2795.000000	0.270000
2796.000000	0.270000
2797.000000	0.240000
2798.000000	0.190000
2799.000000	0.140000
2800.000000	0.095000
2801.000000	0.055000
2802.000000	0.015000
2803.000000	-0.005000
2804.000000	-0.005000
2805.000000	-0.010000
2806.000000	-0.010000
2807.000000	-0.020000
2808.000000	-0.015000
2809.000000	-0.010000
2810.000000	-0.020000
2811.000000	-0.025000
2812.000000	-0.020000
2813.000000	-0.035000
2814.000000	-0.030000
2815.000000	-0.025000
2816.000000	-0.055000
2817.000000	-0.055000
2818.000000	-0.055000
2819.000000	-0.065000
2820.000000	-0.070000
2821.000000	-0.060000
2822.000000	-0.075000
2823.000000	-0.080000
2824.000000	-0.095000
2825.000000	-0.080000
2826.000000	-0.095000
2827.000000	-0.090000
2828.000000	-0.090000
2829.000000	-0.095000
2830.000000	-0.100000
2831.000000	-0.090000
2832.000000	-0.110000
2833.000000	-0.085000
2834.000000	-0.060000
2835.000000	-0.015000
2836.000000	0.030000
2837.000000	0.045000
2838.000000	0.130000
2839.000000	0.160000
2840.000000	0.095000
2841.000000	0.045000
2842.000000	-0.035000
2843.000000	-0.040000
2844.000000	-0.175000
2845.000000	-0.190000
2846.000000	-0.195000
2847.000000	-0.195000
2848.000000	-0.200000
2849.000000	-0.210000
2850.000000	0.125000
2851.000000	0.865000
2852.000000	1.450000
2853.000000	0.450000
2854.000000	-0.480000
2855.000000	-0.720000
2856.000000	-0.535000
2857.000000	-0.235000
2858.000000	-0.180000
2859.000000	-0.170000
2860.000000	-0.160000
2861.000000	-0.160000
2862.000000	-0.145000
2863.000000	-0.140000
2864.000000	-0.125000
2865.000000	-0.080000
2866.000000	-0.085000
2867.000000	-0.060000
2868.000000	-0.040000
2869.000000	0.005000
2870.000000	0.020000
2871.000000	0.045000
2872.000000	0.085000
2873.000000	0.135000
2874.000000	0.155000
2875.000000	0.195000
2876.000000	0.215000
2877.000000	0.230000
2878.000000	0.270000
2879.000000	0.265000
2880.000000	0.260000
2881.000000	0.235000
2882.000000	0.175000
2883.000000	0.160000
2884.000000	0.090000
2885.000000	0.050000
2886.000000	0.020000
2887.000000	0.010000
2888.000000	-0.015000
2889.000000	-0.025000
2890.000000	-0.015000
2891.000000	-0.020000
2892.000000	-0.005000
2893.000000	-0.030000
2894.000000	-0.005000
2895.000000	-0.015000
2896.000000	-0.030000
2897.000000	-0.020000
2898.000000	-0.030000
2899.000000	-0.010000
2900.000000	-0.045000
2901.000000	-0.065000
2902.000000	-0.070000
2903.000000	-0.075000
2904.000000	-0.055000
2905.000000	-0.070000
2906.000000	-0.085000
2907.000000	-0.065000
2908.000000	-0.100000
2909.000000	-0.060000
2910.000000	-0.105000
2911.000000	-0.080000
2912.000000	-0.095000
2913.000000	-0.095000
2914.000000	-0.100000
2915.000000	-0.090000
2916.000000	-0.110000
2917.000000	-0.085000
2918.000000	-0.070000
2919.000000	-0.005000
2920.000000	0.025000
2921.000000	0.055000
2922.000000	0.140000
2923.000000	0.155000
2924.000000	0.090000
2925.000000	0.020000
2926.000000	-0.035000
2927.000000	-0.075000
2928.000000	-0.165000
2929.000000	-0.195000
2930.000000	-0.210000
2931.000000	-0.205000
2932.000000	-0.225000
2933.000000	-0.170000
2934.000000	0.220000
2935.000000	1.055000
2936.000000	1.545000
2937.000000	0.190000
2938.000000	-0.650000
2939.000000	-0.765000
2940.000000	-0.535000
2941.000000	-0.235000
2942.000000	-0.195000
2943.000000	-0.135000
2944.000000	-0.160000
2945.000000	-0.135000
2946.000000	-0.140000
2947.000000	-0.120000
2948.000000	-0.095000
2949.000000	-0.080000
2950.000000	-0.065000
2951.000000	-0.035000
2952.000000	-0.010000
2953.000000	0.000000
2954.000000	0.020000
2955.000000	0.060000
2956.000000	0.100000
2957.000000	0.140000
2958.000000	0.160000
2959.000000	0.210000
2960.000000	0.225000
2961.000000	0.230000
2962.000000	0.265000
2963.000000	0.240000
2964.000000	0.240000
2965.000000	0.225000
2966.000000	0.165000
2967.000000	0.120000
2968.000000	0.085000
2969.000000	0.040000
2970.000000	0.000000
2971.000000	0.000000
2972.000000	-0.025000
2973.000000	-0.010000
2974.000000	-0.025000
2975.000000	-0.050000
2976.000000	-0.010000
2977.000000	-0.025000
2978.000000	-0.030000
2979.000000	-0.010000
2980.000000	-0.040000
2981.000000	-0.040000
2982.000000	-0.040000
2983.000000	-0.025000
2984.000000	-0.065000
2985.000000	-0.055000
2986.000000	-0.075000
2987.000000	-0.065000
2988.000000	-0.085000
2989.000000	-0.080000
2990.000000	-0.070000
2991.000000	-0.085000
2992.000000	-0.100000
2993.000000	-0.090000
2994.000000	-0.090000
2995.000000	-0.100000
2996.000000	-0.110000
2997.000000	-0.100000
2998.000000	-0.090000
2999.000000	-0.070000
3000.000000	-0.045000
3001.000000	0.000000
3002.000000	0.035000
3003.000000	0.060000
3004.000000	0.185000
3005.000000	0.160000
3006.000000	0.065000
3007.000000	0.030000
3008.000000	-0.040000
3009.000000	-0.110000
3010.000000	-0.180000
3011.000000	-0.195000
3012.000000	-0.205000
3013.000000	-0.185000
3014.000000	-0.240000
3015.000000	-0.050000
3016.000000	0.580000
3017.000000	1.330000
3018.000000	1.290000
3019.000000	-0.150000
3020.000000	-0.840000
3021.000000	-0.705000
3022.000000	-0.395000
3023.000000	-0.190000
3024.000000	-0.175000
3025.000000	-0.155000
3026.000000	-0.185000
3027.000000	-0.125000
3028.000000	-0.145000
3029.000000	-0.120000
3030.000000	-0.090000
3031.000000	-0.075000
3032.000000	-0.050000
3033.000000	-0.035000
3034.000000	-0.010000
3035.000000	0.025000
3036.000000	0.030000
3037.000000	0.105000
3038.000000	0.115000
3039.000000	0.165000
3040.000000	0.200000
3041.000000	0.235000
3042.000000	0.260000
3043.000000	0.265000
3044.000000	0.265000
3045.000000	0.285000
3046.000000	0.240000
3047.000000	0.200000
3048.000000	0.160000
3049.000000	0.110000
3050.000000	0.070000
3051.000000	0.015000
3052.000000	-0.010000
3053.000000	-0.015000
3054.000000	-0.025000
3055.000000	-0.040000
3056.000000	-0.030000
3057.000000	-0.020000
3058.000000	-0.030000
3059.000000	-0.025000
3060.000000	-0.020000
3061.000000	-0.030000
3062.000000	-0.035000
3063.000000	-0.030000
3064.000000	-0.040000
3065.000000	-0.050000
3066.000000	-0.065000
3067.000000	-0.055000
3068.000000	-0.065000
3069.000000	-0.065000
3070.000000	-0.085000
3071.000000	-0.080000
3072.000000	-0.105000
3073.000000	-0.085000
3074.000000	-0.095000
3075.000000	-0.085000
3076.000000	-0.115000
3077.000000	-0.100000
3078.000000	-0.115000
3079.000000	-0.090000
3080.000000	-0.125000
3081.000000	-0.105000
3082.000000	-0.065000
3083.000000	0.000000
3084.000000	0.020000
3085.000000	0.055000
3086.000000	0.165000
3087.000000	0.140000
3088.000000	0.050000
3089.000000	0.000000
3090.000000	-0.045000
3091.000000	-0.095000
3092.000000	-0.195000
3093.000000	-0.205000
3094.000000	-0.225000
3095.000000	-0.195000
3096.000000	-0.230000
3097.000000	-0.095000
3098.000000	0.455000
3099.000000	1.345000
3100.000000	1.605000
3101.000000	-0.075000
3102.000000	-0.845000
3103.000000	-0.635000
3104.000000	-0.365000
3105.000000	-0.160000